Time,Longitude  ,Latitude,Altitude,Roll (deg),Pitch (deg),Yaw (deg)
0.0,10.9398,50.9815,315.7728,0,0.0,0.0
1.0,10.939799999999991,50.9815,316.4326488056778,0,5.0,270.0
2.0,10.939799999999991,50.9815,317.65234846398425,0,5.0,0.0
3.0,10.939799999999991,50.9815,319.4319027372045,0,5.0,0.0
4.0,10.939799999999991,50.9815,321.7713171029663,0,5.0,0.0
5.0,10.939799999999991,50.9815,324.6705987542525,0,5.0,0.0
6.0,10.939799999999991,50.9815,328.12975659941765,0,5.0,0.0
7.0,10.939799999999991,50.9815,332.148801262208,0,5.0,0.0
8.0,10.939799999999991,50.9815,336.7277450817859,0,5.0,0.0
9.0,10.939799999999991,50.9815,341.8666021127578,0,5.0,0.0
10.0,10.939799999999991,50.9815,347.5653881252063,0,5.0,0.0
11.0,10.939799999999991,50.9815,353.8241206047261,0,5.0,0.0
12.0,10.939799999999991,50.9815,360.6428187524636,0,5.0,0.0
13.0,10.939799999999991,50.9815,368.0215034851608,0,5.0,0.0
14.0,10.939799999999991,50.9815,375.9601974352028,0,5.0,0.0
15.0,10.939799999999991,50.9815,384.4589249506695,0,5.0,0.0
16.0,10.939799999999991,50.9815,393.5177120953906,0,5.0,0.0
17.0,10.939799999999991,50.9815,403.1365866490055,0,5.0,0.0
18.0,10.939851484446422,50.981495444619995,412.7092935495821,0,5.0,98.00000000508157
19.0,10.939912453904782,50.98149004999639,422.3358621461037,0,5.0,97.99999998767555
20.0,10.939982908371633,50.981483816128396,432.01632195175694,0,5.0,97.99999998296403
21.0,10.940062847843024,50.981476743015236,441.7507026440203,0,5.0,97.999999996383
22.0,10.940152272314492,50.981468830656155,451.5390340647527,0,5.0,97.99999999050027
23.0,10.940251181781008,50.98146007905036,461.38134622028264,0,5.0,98.00000000382715
24.0,10.940359576237057,50.98145048819709,471.27766928149805,0,5.0,98.00000000253453
25.0,10.940477455676614,50.98144005809559,481.2280335839362,0,5.0,97.99999999764822
26.0,10.940604820093142,50.981428788745085,491.23246962787454,0,5.0,97.99999999612055
27.0,10.940741669479564,50.9814166801448,501.2910080784216,0,5.0,98.00000000527075
28.0,10.940888003828348,50.98140373229396,511.40367976560896,0,5.0,97.99999999812957
29.0,10.941043823131366,50.9813899451918,521.570515684483,0,5.0,98.00000000218802
30.0,10.941209127380063,50.98137531883756,531.7915469951978,0,5.0,98.00000000092831
31.0,10.941383916565314,50.981359853230444,542.066805023108,0,5.0,98.0000000023557
32.0,10.941568190677486,50.98134354836973,552.3963212588628,0,5.0,97.99999998914996
33.0,10.94176194970646,50.9813264042546,562.7801273584994,0,5.0,97.99999999888917
34.0,10.94196519364155,50.9813084208843,573.218255143538,0,5.0,97.99999999958646
35.0,10.942177922471615,50.98128959825806,583.7107366010772,0,5.0,97.99999999964109
36.0,10.942400136184915,50.98126993637511,594.2576038838886,0,5.0,97.99999999699662
37.0,10.942631834769315,50.98124943523468,604.8588893105137,0,5.0,97.99999999641784
38.0,10.942873018212083,50.981228094836005,615.5146253653604,0,5.0,97.99999999830482
39.0,10.943123686499973,50.98120591517831,626.2248446987994,0,5.0,97.9999999986087
40.0,10.943383839619258,50.981182896260805,636.9895801272623,0,5.0,98.00000000325622
41.0,10.94365347755567,50.981159038082765,647.8088646333396,0,5.0,97.99999999667756
42.0,10.943932600294431,50.98113434064337,658.6827313658789,0,5.0,98.00000000347745
43.0,10.944221207820306,50.98110880394191,669.6112136400843,0,5.0,97.99999999688714
44.0,10.944519300117463,50.98108242797755,680.5943449376157,0,5.0,98.00000000052273
45.0,10.94482687716959,50.98105521274956,691.6321589066887,0,5.0,97.99999999964416
46.0,10.945143938959859,50.98102715825715,702.7246893621755,0,5.0,98.00000000444805
47.0,10.945470485470906,50.980998264499554,713.8719702857053,0,5.0,98.00000000298496
48.0,10.946395967780518,50.98091637270038,721.1692800802482,0,-5.0,98.00000000012903
49.0,10.947381312233517,50.98082918355179,724.6166410476621,0,-5.0,98.00000000026932
50.0,10.948426518485945,50.9807366970232,724.214063691765,0,-5.0,97.99999999918037
51.0,10.949242212630224,50.980664519879554,724.214063691765,0,0.0,97.99999999956242
52.0,10.950141739217656,50.98058492431785,724.214063691765,0,0.0,98.00000000009999
53.0,10.951041264263011,50.980505328756166,724.214063691765,0,0.0,97.99999999998141
54.0,10.951940787766262,50.980425733194494,724.214063691765,0,0.0,97.99999999958652
55.0,10.952840309727435,50.980346137632836,724.214063691765,0,0.0,97.99999999990683
56.0,10.95373983014656,50.98026654207119,724.214063691765,0,0.0,97.99999999880322
57.0,10.954639349023608,50.980186946509555,724.214063691765,0,0.0,97.99999999927473
58.0,10.955538866358609,50.980107350947925,724.214063691765,0,0.0,97.9999999992271
59.0,10.956438382151589,50.9800277553863,724.214063691765,0,0.0,97.99999999993645
60.0,10.957337896402493,50.97994815982468,724.214063691765,0,0.0,98.00000000123799
61.0,10.958237409111405,50.979868564263086,724.214063691765,0,0.0,97.99999999833437
62.0,10.959136920278269,50.97978896870149,724.214063691765,0,0.0,97.9999999998235
63.0,10.960036429903141,50.979709373139904,724.214063691765,0,0.0,97.99999999958158
64.0,10.960935937985965,50.97962977757834,724.214063691765,0,0.0,97.99999999928673
65.0,10.961835444526798,50.979550182016766,724.214063691765,0,0.0,98.0000000001287
66.0,10.96273494952564,50.97947058645522,724.214063691765,0,0.0,97.9999999994406
67.0,10.96363445298249,50.97939099089367,724.214063691765,0,0.0,97.99999999977479
68.0,10.964533954897377,50.97931139533214,724.214063691765,0,0.0,97.9999999992882
69.0,10.965433455270272,50.97923179977061,724.214063691765,0,0.0,98.00000000037682
70.0,10.966332954101205,50.9791522042091,724.214063691765,0,0.0,97.99999999906692
71.0,10.967232451390174,50.97907260864759,724.214063691765,0,0.0,97.99999999971197
72.0,10.96813194713718,50.97899301308611,724.214063691765,0,0.0,97.99999999851138
73.0,10.969031441342224,50.978913417524616,724.214063691765,0,0.0,98.00000000024033
74.0,10.969930934005333,50.97883382196314,724.214063691765,0,0.0,97.99999999985846
75.0,10.970830425126536,50.97875422640167,724.214063691765,0,0.0,98.00000000057702
76.0,10.971729914705804,50.97867463084021,724.214063691765,0,0.0,98.00000000001683
77.0,10.972629402743138,50.97859503527877,724.214063691765,0,0.0,97.99999999951831
78.0,10.973528889238565,50.97851543971733,724.214063691765,0,0.0,97.99999999977672
79.0,10.974428374192087,50.97843584415591,724.214063691765,0,0.0,97.99999999820358
80.0,10.97532785760373,50.97835624859451,724.214063691765,0,0.0,97.99999999897909
81.0,10.976227339473468,50.9782766530331,724.214063691765,0,0.0,97.99999999973801
82.0,10.977126819801327,50.97819705747171,724.214063691765,0,0.0,97.99999999841407
83.0,10.97802629858731,50.97811746191032,724.214063691765,0,0.0,97.99999999999164
84.0,10.978925775831414,50.97803786634895,724.214063691765,0,0.0,97.99999999912046
85.0,10.979825251533669,50.97795827078758,724.214063691765,0,0.0,97.99999999993895
86.0,10.980724725694046,50.97787867522622,724.214063691765,0,0.0,97.99999999949262
87.0,10.981624198312574,50.977799079664884,724.214063691765,0,0.0,97.99999999887063
88.0,10.982523669389252,50.977719484103545,724.214063691765,0,0.0,97.99999999892748
89.0,10.98342313892411,50.97763988854222,724.214063691765,0,0.0,97.99999999943964
90.0,10.984322606917118,50.97756029298091,724.214063691765,0,0.0,97.99999999930418
91.0,10.985222073368305,50.9774806974196,724.214063691765,0,0.0,98.00000000025523
92.0,10.9861215382777,50.9774011018583,724.214063691765,0,0.0,97.99999999943884
93.0,10.987021001645303,50.977321506297,724.214063691765,0,0.0,97.99999999993236
94.0,10.987920463471085,50.97724191073573,724.214063691765,0,0.0,97.99999999949057
95.0,10.988819923755074,50.97716231517446,724.214063691765,0,0.0,97.99999999979184
96.0,10.989719382497299,50.9770827196132,724.214063691765,0,0.0,97.9999999989708
97.0,10.990618839697731,50.977003124051954,724.214063691765,0,0.0,97.99999999972482
98.0,10.991518295356371,50.976923528490715,724.214063691765,0,0.0,97.99999999959385
99.0,10.992417749473248,50.97684393292948,724.214063691765,0,0.0,97.9999999998904
100.0,10.993317202048388,50.976764337368266,724.214063691765,0,0.0,97.99999999876297
101.0,10.994216653081764,50.976684741807055,724.214063691765,0,0.0,98.00000000044497
102.0,10.995116102573405,50.97660514624586,724.214063691765,0,0.0,97.99999999879583
103.0,10.99601555052331,50.97652555068468,724.214063691765,0,0.0,97.99999999941713
104.0,10.99691499693148,50.976445955123495,724.214063691765,0,0.0,97.99999999915343
105.0,10.997814441797942,50.97636635956233,724.214063691765,0,0.0,97.99999999934516
106.0,10.998713885122669,50.976286764001166,724.214063691765,0,0.0,98.00000000013739
107.0,10.999613326905717,50.97620716844003,724.214063691765,0,0.0,97.99999999829379
108.0,11.000512767147029,50.97612757287888,724.214063691765,0,0.0,97.99999999953889
109.0,11.001412205846663,50.97604797731775,724.214063691765,0,0.0,98.00000000035692
110.0,11.002311643004589,50.97596838175662,724.214063691765,0,0.0,97.99999999956674
111.0,11.003211078620836,50.975888786195505,724.214063691765,0,0.0,98.00000000019247
112.0,11.004110512695405,50.97580919063441,724.214063691765,0,0.0,97.99999999960374
113.0,11.005009945228323,50.97572959507331,724.214063691765,0,0.0,97.999999999772
114.0,11.005909376219591,50.97564999951223,724.214063691765,0,0.0,97.99999999906925
115.0,11.00680880566918,50.97557040395116,724.214063691765,0,0.0,97.99999999959806
116.0,11.007708233577148,50.9754908083901,724.214063691765,0,0.0,97.9999999994123
117.0,11.008607659943465,50.97541121282906,724.214063691765,0,0.0,97.99999999855095
118.0,11.00950708476816,50.97533161726802,724.214063691765,0,0.0,97.99999999910557
119.0,11.010406508051233,50.975252021706986,724.214063691765,0,0.0,97.99999999940633
120.0,11.011305929792684,50.97517242614597,724.214063691765,0,0.0,97.99999999943918
121.0,11.012205349992541,50.97509283058495,724.214063691765,0,0.0,97.99999999991343
122.0,11.013104768650777,50.97501323502394,724.214063691765,0,0.0,98.00000000039904
123.0,11.01400418576742,50.97493363946294,724.214063691765,0,0.0,97.99999999974841
124.0,11.014903601342468,50.97485404390195,724.214063691765,0,0.0,97.99999999977649
125.0,11.015803015375951,50.97477444834098,724.214063691765,0,0.0,97.99999999931333
126.0,11.016702427867841,50.97469485278002,724.214063691765,0,0.0,97.99999999946465
127.0,11.017601838818138,50.97461525721906,724.214063691765,0,0.0,98.00000000000716
128.0,11.018501248226897,50.974535661658116,724.214063691765,0,0.0,97.99999999947761
129.0,11.019400656094092,50.974456066097176,724.214063691765,0,0.0,98.00000000019361
130.0,11.02030006241975,50.97437647053625,724.214063691765,0,0.0,97.99999999948574
131.0,11.021199467203871,50.97429687497534,724.214063691765,0,0.0,97.99999999944265
132.0,11.022098870446456,50.974217279414425,724.214063691765,0,0.0,97.9999999997907
133.0,11.022998272147504,50.974137683853534,724.214063691765,0,0.0,97.99999999862268
134.0,11.023897672307044,50.974058088292644,724.214063691765,0,0.0,98.00000000042041
135.0,11.024797070925075,50.973978492731774,724.214063691765,0,0.0,97.99999999880873
136.0,11.025696468001598,50.97389889717091,724.214063691765,0,0.0,97.9999999994676
137.0,11.026595863536613,50.97381930161005,724.214063691765,0,0.0,97.99999999985852
138.0,11.027495257530148,50.97373970604921,724.214063691765,0,0.0,97.99999999914104
139.0,11.028394649982175,50.97366011048837,724.214063691765,0,0.0,97.99999999966923
140.0,11.02929404089275,50.97358051492755,724.214063691765,0,0.0,97.99999999944083
141.0,11.030193430261846,50.97350091936673,724.214063691765,0,0.0,97.99999999952541
142.0,11.03109281808949,50.97342132380591,724.214063691765,0,0.0,98.00000000101198
143.0,11.031992204375655,50.97334172824512,724.214063691765,0,0.0,97.99999999931254
144.0,11.032891589120396,50.97326213268433,724.214063691765,0,0.0,97.99999999940889
145.0,11.033790972323686,50.97318253712356,724.214063691765,0,0.0,97.99999999854202
146.0,11.034690353985553,50.9731029415628,724.214063691765,0,0.0,97.99999999970828
147.0,11.035589734105969,50.97302334600204,724.214063691765,0,0.0,97.99999999989734
148.0,11.03648911268499,50.97294375044129,724.214063691765,0,0.0,97.99999999967332
149.0,11.037388489722588,50.972864154880554,724.214063691765,0,0.0,97.99999999913115
150.0,11.038287865218791,50.97278455931982,724.214063691765,0,0.0,98.00000000027865
151.0,11.039187239173572,50.9727049637591,724.214063691765,0,0.0,97.99999999984578
152.0,11.040086611586958,50.972625368198386,724.214063691765,0,0.0,97.99999999986824
153.0,11.040985982458977,50.972545772637694,724.214063691765,0,0.0,97.99999999937154
154.0,11.041885351789603,50.972466177077,724.214063691765,0,0.0,97.99999999951729
155.0,11.042784719578862,50.97238658151631,724.214063691765,0,0.0,98.00000000042002
156.0,11.043684085826754,50.97230698595564,724.214063691765,0,0.0,98.00000000010817
157.0,11.044583450533281,50.97222739039498,724.214063691765,0,0.0,98.00000000018747
158.0,11.04548281369847,50.97214779483433,724.214063691765,0,0.0,97.9999999984854
159.0,11.046382175322321,50.97206819927369,724.214063691765,0,0.0,97.99999999969884
160.0,11.047281535404807,50.971988603713065,724.214063691765,0,0.0,97.99999999964751
161.0,11.048180893945982,50.97190900815244,724.214063691765,0,0.0,98.00000000041729
162.0,11.049080250945849,50.971829412591816,724.214063691765,0,0.0,98.00000000028814
163.0,11.049979606404406,50.97174981703122,724.214063691765,0,0.0,97.99999999928792
164.0,11.050878960321626,50.97167022147062,724.214063691765,0,0.0,97.99999999986284
165.0,11.051778312697564,50.97159062591004,724.214063691765,0,0.0,97.99999999969515
166.0,11.052677663532194,50.97151103034946,724.214063691765,0,0.0,97.99999999948295
167.0,11.053577012825542,50.9714314347889,724.214063691765,0,0.0,97.9999999997541
168.0,11.05447636057761,50.97135183922835,724.214063691765,0,0.0,97.99999999944174
169.0,11.055375706788396,50.971272243667805,724.214063691765,0,0.0,97.9999999995066
170.0,11.05627505145793,50.97119264810727,724.214063691765,0,0.0,98.00000000001279
171.0,11.057174394586184,50.97111305254675,724.214063691765,0,0.0,97.99999999956981
172.0,11.058073736173185,50.97103345698623,724.214063691765,0,0.0,98.0000000001993
173.0,11.058973076218962,50.97095386142573,724.214063691765,0,0.0,97.99999999907527
174.0,11.059872414723486,50.97087426586523,724.214063691765,0,0.0,98.00000000012955
175.0,11.060771751686787,50.97079467030474,724.214063691765,0,0.0,98.00000000007543
176.0,11.061671087108863,50.97071507474426,724.214063691765,0,0.0,97.99999999943788
177.0,11.062570420989715,50.9706354791838,724.214063691765,0,0.0,98.00000000012415
178.0,11.063469753329372,50.97055588362335,724.214063691765,0,0.0,97.99999999937245
179.0,11.064369084127804,50.970476288062905,724.214063691765,0,0.0,97.99999999923534
180.0,11.065268413385041,50.97039669250246,724.214063691765,0,0.0,98.00000000048618
181.0,11.066167741101111,50.97031709694204,724.214063691765,0,0.0,97.9999999993525
182.0,11.067067067275985,50.970237501381625,724.214063691765,0,0.0,97.99999999914888
183.0,11.067966391909664,50.970157905821225,724.214063691765,0,0.0,97.99999999963802
184.0,11.068865715002204,50.97007831026083,724.214063691765,0,0.0,97.99999999939837
185.0,11.069765036553576,50.96999871470044,724.214063691765,0,0.0,97.99999999974546
186.0,11.070664356563782,50.96991911914006,724.214063691765,0,0.0,98.00000000018201
187.0,11.071563675032849,50.969839523579694,724.214063691765,3.0,0.0,97.99999999948227
188.0,11.07246119215759,50.969752243261404,724.214063691765,6.0,0.0,98.77824118179171
189.0,11.073356742212923,50.96965729428828,724.214063691765,8.737952010431007,0.0,99.55648236357496
190.0,11.07425015983867,50.969554694178186,724.214063691765,8.737952010431007,0.0,100.33472354670937
191.0,11.075141280070142,50.969444461860576,724.214063691765,8.737952010431007,0.0,101.11296472905582
192.0,11.07602993836889,50.969326617672955,724.214063691765,8.737952010431007,0.0,101.89120591079376
193.0,11.076915970653062,50.96920118335715,724.214063691765,8.737952010431007,0.0,102.6694470927169
194.0,11.07779921332795,50.96906818205529,724.214063691765,8.737952010431007,0.0,103.44768827527662
195.0,11.078679503316266,50.96892763830552,724.214063691765,8.737952010431007,0.0,104.2259294574564
196.0,11.079556678088323,50.96877957803753,724.214063691765,8.737952010431007,0.0,105.00417064022639
197.0,11.080430575692304,50.968624028567696,724.214063691765,8.737952010431007,0.0,105.78241182091972
198.0,11.081301034784161,50.96846101859408,724.214063691765,8.737952010431007,0.0,106.56065300510909
199.0,11.082167894657545,50.96829057819114,724.214063691765,8.737952010431007,0.0,107.33889418751687
200.0,11.083030995273731,50.96811273880418,724.214063691765,8.737952010431007,0.0,108.11713536765183
201.0,11.083890177291039,50.96792753324352,724.214063691765,8.737952010431007,0.0,108.89537655062338
202.0,11.084745282094588,50.96773499567845,724.214063691765,8.737952010431007,0.0,109.67361773382174
203.0,11.085596151825598,50.96753516163097,724.214063691765,8.737952010431007,0.0,110.4518589155009
204.0,11.086442629410612,50.96732806796917,724.214063691765,8.737952010431007,0.0,111.2301000981929
205.0,11.087284558590653,50.96711375290049,724.214063691765,8.737952010431007,0.0,112.00834128010683
206.0,11.088121783950157,50.966892255964616,724.214063691765,8.737952010431007,0.0,112.78658246248659
207.0,11.088954150945767,50.96666361802621,724.214063691765,8.737952010431007,0.0,113.56482364551619
208.0,11.089781505935008,50.966427881267386,724.214063691765,8.737952010431007,0.0,114.34306482686821
209.0,11.090603696204596,50.96618508917991,724.214063691765,8.737952010431007,0.0,115.12130601011432
210.0,11.091420569998945,50.965935286557155,724.214063691765,8.737952010431007,0.0,115.8995471918713
211.0,11.092231976548078,50.96567851948589,724.214063691765,8.737952010431007,0.0,116.67778837303365
212.0,11.093037766095648,50.965414835337704,724.214063691765,8.737952010431007,0.0,117.45602955700315
213.0,11.093837789926624,50.96514428276034,724.214063691765,8.737952010431007,0.0,118.23427073919481
214.0,11.094631900394859,50.96486691166867,724.214063691765,8.737952010431007,0.0,119.01251192148112
215.0,11.0954199509504,50.964582773235534,724.214063691765,8.737952010431007,0.0,119.79075310179462
216.0,11.096201796166582,50.9642919198822,724.214063691765,8.737952010431007,0.0,120.56899428722079
217.0,11.096977291767047,50.963994405268814,724.214063691765,8.737952010431007,0.0,121.34723546753179
218.0,11.097746294652268,50.96369028428444,724.214063691765,8.737952010431007,0.0,122.12547665012323
219.0,11.098508662926207,50.96337961303691,724.214063691765,8.737952010431007,0.0,122.90371783272792
220.0,11.099264255922463,50.96306244884253,724.214063691765,8.737952010431007,0.0,123.68195901480203
221.0,11.100012934230278,50.96273885021546,724.214063691765,8.737952010431007,0.0,124.46020019716696
222.0,11.1007545597204,50.962408876856934,724.214063691765,8.737952010431007,0.0,125.23844137995877
223.0,11.101488995570548,50.96207258964425,724.214063691765,8.737952010431007,0.0,126.01668256204425
224.0,11.102216106290797,50.96173005061953,724.214063691765,8.737952010431007,0.0,126.79492374387377
225.0,11.102935757748497,50.961381322978276,724.214063691765,8.737952010431007,0.0,127.57316492713153
226.0,11.103647817193178,50.96102647105772,724.214063691765,8.737952010431007,0.0,128.35140611021114
227.0,11.10435215328107,50.96066556032495,724.214063691765,8.737952010431007,0.0,129.12964729124445
228.0,11.105048636099298,50.9602986573648,724.214063691765,8.737952010431007,0.0,129.90788847343123
229.0,11.105737137189948,50.95992582986762,724.214063691765,8.737952010431007,0.0,130.68612965589614
230.0,11.106417529573775,50.95954714661676,724.214063691765,8.737952010431007,0.0,131.46437083898638
231.0,11.10708968777368,50.95916267747586,724.214063691765,8.737952010431007,0.0,132.24261202021916
232.0,11.107753487837812,50.95877249337601,724.214063691765,8.737952010431007,0.0,133.02085320310096
233.0,11.108408807362508,50.958376666302605,724.214063691765,8.737952010431007,0.0,133.79909438602783
