Time,Longitude  ,Latitude,Altitude,Roll (deg),Pitch (deg),Yaw (deg)
0.0,10.9398,50.9815,315.7728,0,0.0,0.0
1.0,10.939799999999991,50.9815,316.4326488056778,0,5.0,270.0
2.0,10.939799999999991,50.9815,317.65234846398425,0,5.0,0.0
3.0,10.939799999999991,50.9815,319.4319027372045,0,5.0,0.0
4.0,10.939799999999991,50.9815,321.7713171029663,0,5.0,0.0
5.0,10.939799999999991,50.9815,324.6705987542525,0,5.0,0.0
6.0,10.939799999999991,50.9815,328.12975659941765,0,5.0,0.0
7.0,10.939799999999991,50.9815,332.148801262208,0,5.0,0.0
8.0,10.939799999999991,50.9815,336.7277450817859,0,5.0,0.0
9.0,10.939799999999991,50.9815,341.8666021127578,0,5.0,0.0
10.0,10.939799999999991,50.9815,347.5653881252063,0,5.0,0.0
11.0,10.939799999999991,50.9815,353.8241206047261,0,5.0,0.0
12.0,10.939799999999991,50.9815,360.6428187524636,0,5.0,0.0
13.0,10.93983925788109,50.981496526437226,367.4152189338912,0,5.0,97.99999998464602
14.0,10.939888000776818,50.98149221363183,374.2413419197679,0,5.0,97.99999999733086
15.0,10.939946228684363,50.981487061583046,381.12120864470023,0,5.0,98.00000000524591
16.0,10.940013941600427,50.981481070290116,388.05484020720496,0,5.0,97.99999998675793
17.0,10.940091139521172,50.981474239752245,395.0422578697719,0,5.0,98.00000000127875
18.0,10.940177822442308,50.98146656996868,402.0834830589276,0,5.0,97.99999999681859
19.0,10.940273990358946,50.98145806093865,409.1785373652994,0,5.0,98.00000000048408
20.0,10.940379643265743,50.981448712661376,416.3274425436799,0,5.0,97.99999999489046
21.0,10.940494781156815,50.98143852513609,423.53022051309205,0,5.0,97.99999999388422
22.0,10.940619404025739,50.98142749836203,430.7868933568544,0,5.0,98.00000000284348
23.0,10.940782331877472,50.981413082288135,437.9799321300599,0,-5.0,98.00000000127426
24.0,10.94097025491115,50.98139645458116,445.10935888230557,0,-5.0,98.00000000066859
25.0,10.941183173098807,50.98137761523576,452.1751954664212,0,-5.0,98.0000000012605
26.0,10.941421086408866,50.9813565642466,459.17746353853835,0,-5.0,97.99999999796722
27.0,10.941683994806198,50.98133330160833,466.1161845581586,0,-5.0,98.00000000427349
28.0,10.94197189825212,50.98130782731563,472.9913797882212,0,-5.0,97.99999999837485
29.0,10.942284796704342,50.981280141363165,479.80307029517036,0,-5.0,97.99999999965684
30.0,10.942622690117048,50.98125024374557,486.5512769490213,0,-5.0,97.99999999948994
31.0,10.942985578440783,50.98121813445752,493.2360204234264,0,-5.0,98.0000000011537
32.0,10.943373461622599,50.98118381349368,499.8573211957402,0,-5.0,97.99999999907891
33.0,10.943786339605907,50.98114728084872,506.4151995470842,0,-5.0,97.99999999668643
34.0,10.944224212330596,50.98110853651727,512.9096755624106,0,-5.0,98.00000000145263
35.0,10.944687079732944,50.981067580494006,519.3407691305656,0,-5.0,98.00000000071213
36.0,10.945174941745648,50.9810244127736,525.7084999443524,0,-5.0,98.0000000000685
37.0,10.945663037458331,50.98098122433396,532.0128875005933,0,-5.0,97.99999999888405
38.0,10.946151132717006,50.980938035894305,538.2539511019764,0,-5.0,98.00000000142614
39.0,10.946639227521644,50.98089484745466,544.4317098571345,0,-5.0,98.0000000009345
40.0,10.947127321872244,50.98085165901501,550.5461826807042,0,-5.0,97.99999999993099
41.0,10.947615415768809,50.98080847057537,556.5973882933864,0,-5.0,97.9999999983126
42.0,10.948103509211364,50.98076528213573,562.5853452220048,0,-5.0,98.00000000037147
43.0,10.948591602199883,50.98072209369609,568.5100717995643,0,-5.0,98.00000000053399
44.0,10.949079694734394,50.98067890525645,574.3715861653094,0,-5.0,98.0000000008846
45.0,10.949567786814868,50.980635716816806,580.1699062647805,0,-5.0,98.00000000050187
46.0,10.950055878441333,50.980592528377166,585.9050498498711,0,-5.0,98.00000000030724
47.0,10.950543969613761,50.98054933993753,591.5770344788837,0,-5.0,98.00000000112391
48.0,10.951032060332182,50.9805061514979,597.1858775165847,0,-5.0,98.00000000096554
49.0,10.951520150596565,50.98046296305826,602.7315961342597,0,-5.0,98.00000000123703
50.0,10.95200824040694,50.980419774618625,608.2142073097674,0,-5.0,98.00000000053342
51.0,10.952496329763306,50.980376586179005,613.633727827593,0,-5.0,97.99999999805192
52.0,10.952984418665636,50.98033339773939,618.9901742789012,0,-5.0,97.99999999726617
53.0,10.953472507113958,50.98029020929978,624.2835630615888,0,-5.0,97.99999999949904
54.0,10.953960595108299,50.980247020860155,629.5139103803356,0,-5.0,97.99999999951655
55.0,10.954448682648632,50.980203832420536,634.6812322466564,0,-5.0,97.99999999948528
56.0,10.954936769734928,50.980160643980916,639.7855444789509,0,-5.0,98.00000000107258
57.0,10.955424856367216,50.9801174555413,644.8268627025537,0,-5.0,98.00000000105183
58.0,10.955912942545496,50.98007426710168,649.8052023497837,0,-5.0,97.99999999930469
59.0,10.956401028269767,50.980031078662066,654.7205786599923,0,-5.0,97.99999999990177
60.0,10.956889113540058,50.979987890222446,659.573006679612,0,-5.0,98.00000000121702
61.0,10.957377198356312,50.97994470178283,664.3625012622035,0,-5.0,98.0000000011762
62.0,10.957865282718586,50.97990151334321,669.0890770685025,0,-5.0,98.00000000133895
63.0,10.958353366626852,50.97985832490359,673.7527485664662,0,-5.0,98.00000000200868
64.0,10.95884145008111,50.979815136463976,678.3535300313183,0,-5.0,98.0000000009777
65.0,10.959329533081359,50.979771948024364,682.8914355455948,0,-5.0,98.00000000165801
66.0,10.959817615627628,50.97972875958475,687.3664789991878,0,-5.0,98.00000000136322
67.0,10.96030569771986,50.979685571145154,691.7786740893894,0,-5.0,98.00000000024255
68.0,10.960793779358113,50.979642382705556,696.1280343209348,0,-5.0,97.99999999879532
69.0,10.961281860542385,50.97959919426595,700.4145730060452,0,-5.0,98.00000000085544
70.0,10.96176994127265,50.97955600582636,704.6383032644694,0,-5.0,97.99999999932606
71.0,10.962258021548934,50.97951281738676,708.7992380235253,0,-5.0,97.99999999912211
72.0,10.96274610137121,50.97946962894718,712.8973900181406,0,-5.0,97.99999999992951
73.0,10.963234180739505,50.97942644050758,716.9327717908931,0,-5.0,98.00000000092484
74.0,10.96372225965382,50.97938325206798,720.9053956920498,0,-5.0,98.00000000130541
75.0,10.964210338114128,50.97934006362839,724.8152738796064,0,-5.0,98.00000000047407
76.0,10.964698416120456,50.979296875188794,728.6624183193251,0,-5.0,98.00000000033515
77.0,10.965186493672803,50.97925368674921,732.4468407847726,0,-5.0,98.00000000024005
78.0,10.965674570771142,50.97921049830962,736.1685528573571,0,-5.0,97.99999999941167
79.0,10.966162647415501,50.979167309870036,739.827565926365,0,-5.0,98.00000000109753
80.0,10.96665072360588,50.979124121430445,743.4238911889962,0,-5.0,98.00000000100545
81.0,10.96713879934228,50.979080932990854,746.9575396504003,0,-5.0,98.00000000272757
82.0,10.967626874624699,50.97903774455127,750.4285221237106,0,-5.0,98.00000000097862
83.0,10.968114949453138,50.978994556111694,753.8368492300783,0,-5.0,98.00000000094099
84.0,10.968603023827598,50.97895136767212,757.182531398706,0,-5.0,97.99999999978422
85.0,10.969091097748077,50.97890817923253,760.4655788668807,0,-5.0,98.00000000041587
86.0,10.969579171214576,50.978864990792964,763.686001680006,0,-5.0,98.00000000045839
87.0,10.970067244227096,50.97882180235339,766.8438096916335,0,-5.0,97.99999999993759
88.0,10.970555316785635,50.978778613913825,769.9390125634943,0,-5.0,97.99999999946061
89.0,10.971043388890223,50.978735425474255,772.971619765529,0,-5.0,97.9999999996503
90.0,10.971531460540831,50.97869223703469,775.9416405759179,0,-5.0,97.99999999920965
91.0,10.972019531737459,50.97864904859513,778.8490840811099,0,-5.0,97.99999999992446
92.0,10.972507602480135,50.97860586015557,781.6939591758517,0,-5.0,97.99999999961278
93.0,10.972995672768832,50.97856267171601,784.4762745632149,0,-5.0,97.99999999864508
94.0,10.973483742603548,50.97851948327646,787.1960387546245,0,-5.0,97.99999999999591
95.0,10.973971811984285,50.9784762948369,789.8532600698849,0,-5.0,97.99999999962023
96.0,10.97445988091107,50.97843310639734,792.4479466372063,0,-5.0,98.00000000112578
97.0,10.974947949383903,50.978389917957784,794.9801063932307,0,-5.0,97.99999999976751
98.0,10.975436017402785,50.97834672951823,797.4497470830563,0,-5.0,98.00000000072782
99.0,10.975924084967687,50.97830354107868,799.8568762602625,0,-5.0,97.99999999984323
100.0,10.976412152078609,50.97826035263913,802.2015012869334,0,-5.0,97.99999999955833
101.0,10.97690021873558,50.978217164199584,804.4836293336808,0,-5.0,98.00000000059885
102.0,10.977388284938598,50.978173975760036,806.7032673796673,0,-5.0,97.99999999988711
103.0,10.977876350687666,50.97813078732049,808.8604222126278,0,-5.0,98.00000000035664
104.0,10.978364415982753,50.97808759888094,810.9551004288911,0,-5.0,98.00000000014433
105.0,10.978852480823917,50.978044410441406,812.9873084334008,0,-5.0,97.99999999904969
106.0,10.979340545211102,50.978001222001865,814.9570524397352,0,-5.0,98.00000000061834
107.0,10.979828609144334,50.97795803356233,816.8643384701272,0,-5.0,97.99999999886
108.0,10.980316672623644,50.9779148451228,818.709172355483,0,-5.0,97.99999999953866
109.0,10.980804735649002,50.97787165668326,820.4915597354005,0,-5.0,98.0000000006986
110.0,10.981292798220409,50.97782846824372,822.2115060581874,0,-5.0,97.99999999957629
111.0,10.981780860337835,50.97778527980418,823.8690165808779,0,-5.0,98.00000000120991
112.0,10.98226892200131,50.97774209136465,825.4640963692494,0,-5.0,98.0000000018685
113.0,10.982756983210862,50.977698902925106,826.9967502978388,0,-5.0,97.99999999975597
114.0,10.983245043966463,50.97765571448558,828.4669830499574,0,-5.0,98.00000000100664
115.0,10.983733104268111,50.97761252604605,829.8747991177058,0,-5.0,97.99999999936779
116.0,10.984221164115809,50.97756933760654,831.2202028019883,0,-5.0,97.9999999989102
117.0,10.984709223509583,50.97752614916702,832.5031982125261,0,-5.0,97.9999999991964
118.0,10.985197282449406,50.9774829607275,833.7237892678703,0,-5.0,97.99999999821927
119.0,10.985685340935305,50.97743977228799,834.8819796954145,0,-5.0,97.99999999965337
120.0,10.986173398967253,50.97739658384847,835.9777730314065,0,-5.0,98.00000000045713
121.0,10.986661456545278,50.97735339540895,837.011172620959,0,-5.0,97.99999999965291
122.0,10.987149513669351,50.97731020696943,837.9821816180606,0,-5.0,98.00000000104876
123.0,10.987637570339473,50.9772670185299,838.8908029855857,0,-5.0,98.00000000188129
124.0,10.988125626555671,50.977223830090395,839.7370394953035,0,-5.0,97.99999999938683
125.0,10.988613682317947,50.97718064165088,840.5208937278871,0,-5.0,98.0000000015371
126.0,10.9891017376263,50.97713745321137,841.2423680729216,0,-5.0,97.99999999963472
127.0,10.9895897924807,50.97709426477186,841.9014647289113,0,-5.0,98.0000000011471
128.0,10.990077846881178,50.97705107633235,842.4981857032867,0,-5.0,97.99999999928104
129.0,10.990565900827733,50.977007887892846,843.0325328124114,0,-5.0,97.99999999920351
130.0,10.991053954320364,50.97696469945335,843.5045076815871,0,-5.0,98.000000000863
131.0,10.991542007359072,50.976921511013856,843.914111745059,0,-5.0,97.999999996751
132.0,10.992030059943858,50.976878322574365,844.2613462460203,0,-5.0,97.99999999844675
133.0,10.992518112074691,50.97683513413487,844.5462122366162,0,-5.0,97.99999999946073
134.0,10.993006163751602,50.976791945695375,844.768710577947,0,-5.0,98.00000000121855
135.0,10.993494214974618,50.976748757255876,844.9288419400713,0,-5.0,98.00000000078671
136.0,10.993982265743682,50.97670556881638,845.0266068020072,0,-5.0,98.00000000008481
137.0,10.994470316058823,50.97666238037689,845.062005451735,0,-5.0,98.00000000075971
138.0,10.99495836592007,50.976619191937395,845.0350379861969,0,-5.0,97.99999999974938
139.0,10.995860663037178,50.976539344255336,845.0350379861969,0,0.0,97.99999999907425
140.0,10.996762958602773,50.97645949657329,845.0350379861969,0,0.0,97.99999999842709
141.0,10.997665252616855,50.976379648891246,845.0350379861969,0,0.0,97.99999999942867
142.0,10.998567545079425,50.976299801209215,845.0350379861969,0,0.0,98.00000000017769
143.0,10.99946983599051,50.9762199535272,845.0350379861969,0,0.0,97.99999999948005
144.0,11.000372125350111,50.976140105845175,845.0350379861969,0,0.0,98.00000000043116
145.0,11.001274413158228,50.97606025816318,845.0350379861969,0,0.0,97.99999999921454
146.0,11.002176699414889,50.97598041048119,845.0350379861969,0,0.0,97.99999999941008
147.0,11.003078984120094,50.97590056279921,845.0350379861969,0,0.0,97.9999999990107
148.0,11.003981267273844,50.97582071511724,845.0350379861969,0,0.0,97.99999999965871
149.0,11.004883548876137,50.975740867435285,845.0350379861969,0,0.0,97.99999999938342
150.0,11.005785828926975,50.97566101975333,845.0350379861969,0,0.0,97.99999999949858
151.0,11.006688107426385,50.975581172071394,845.0350379861969,0,0.0,97.9999999988101
152.0,11.007590384374367,50.97550132438946,845.0350379861969,0,0.0,98.00000000007094
153.0,11.008492659770923,50.975421476707545,845.0350379861969,0,0.0,97.99999999884955
154.0,11.009394933616079,50.97534162902563,845.0350379861969,0,0.0,97.99999999998391
155.0,11.010297205909836,50.97526178134373,845.0350379861969,0,0.0,97.99999999897847
156.0,11.011199476652195,50.97518193366184,845.0350379861969,0,0.0,97.99999999927934
157.0,11.012101745843154,50.975102085979955,845.0350379861969,0,0.0,97.99999999997073
158.0,11.013004013482714,50.975022238298074,845.0350379861969,0,0.0,98.00000000008106
159.0,11.013906279570875,50.97494239061621,845.0350379861969,0,0.0,97.99999999993895
160.0,11.014808544107694,50.97486254293435,845.0350379861969,0,0.0,98.00000000001472
161.0,11.015710807093143,50.97478269525251,845.0350379861969,0,0.0,97.99999999910307
162.0,11.01661306852722,50.974702847570676,845.0350379861969,0,0.0,98.00000000018252
163.0,11.017515328409957,50.97462299988885,845.0350379861969,0,0.0,97.99999999915838
164.0,11.01841758674135,50.97454315220704,845.0350379861969,0,0.0,97.99999999978286
165.0,11.019319843521401,50.97446330452524,845.0350379861969,0,0.0,97.99999999984033
166.0,11.02022209875014,50.97438345684345,845.0350379861969,0,0.0,97.99999999938075
167.0,11.021124352427535,50.974303609161666,845.0350379861969,0,0.0,97.99999999957618
168.0,11.022026604553616,50.97422376147989,845.0350379861969,0,0.0,97.99999999986983
169.0,11.022928855128413,50.97414391379812,845.0350379861969,0,0.0,98.00000000030343
170.0,11.023831104151895,50.97406406611636,845.0350379861969,0,0.0,98.00000000010596
171.0,11.024733351624093,50.97398421843462,845.0350379861969,0,0.0,97.99999999940536
172.0,11.025635597545005,50.97390437075289,845.0350379861969,0,0.0,97.9999999997105
173.0,11.026537841914632,50.973824523071166,845.0350379861969,0,0.0,97.99999999944856
174.0,11.027440084732973,50.97374467538944,845.0350379861969,0,0.0,98.00000000050682
175.0,11.028342326000086,50.973664827707736,845.0350379861969,0,0.0,98.00000000019634
176.0,11.029244565715913,50.97358498002604,845.0350379861969,0,0.0,97.99999999947744
177.0,11.030146803880513,50.97350513234435,845.0350379861969,0,0.0,97.99999999990615
178.0,11.031049040493855,50.97342528466268,845.0350379861969,0,0.0,97.99999999877406
179.0,11.031951275555969,50.97334543698102,845.0350379861969,0,0.0,97.99999999932686
180.0,11.032853509066854,50.97326558929936,845.0350379861969,0,0.0,97.99999999931254
181.0,11.03375574102651,50.97318574161772,845.0350379861969,0,0.0,97.99999999936028
182.0,11.034657971434939,50.973105893936086,845.0350379861969,0,0.0,97.99999999979855
183.0,11.035560200292167,50.97302604625447,845.0350379861969,0,0.0,97.99999999909062
184.0,11.036462427598167,50.972946198572856,845.0350379861969,0,0.0,97.99999999932447
185.0,11.037364653352995,50.972866350891245,845.0350379861969,0,0.0,97.99999999944771
186.0,11.038266877556623,50.972786503209655,845.0350379861969,0,0.0,97.99999999955497
187.0,11.039169100209108,50.972706655528064,845.0350379861969,0,0.0,97.99999999923716
188.0,11.040071321310393,50.9726268078465,845.0350379861969,0,0.0,97.99999999821034
189.0,11.040973540860506,50.97254696016494,845.0350379861969,0,0.0,97.99999999952524
190.0,11.041875758859476,50.972467112483386,845.0350379861969,0,0.0,97.99999999937961
191.0,11.042777975307274,50.972387264801846,845.0350379861969,0,0.0,97.99999999893129
192.0,11.04368019020393,50.972307417120305,845.0350379861969,0,0.0,98.0000000004963
193.0,11.04458240354947,50.97222756943878,845.0350379861969,0,0.0,97.99999999934255
194.0,11.045484615343867,50.97214772175726,845.0350379861969,0,0.0,97.99999999945885
195.0,11.046386825587149,50.97206787407576,845.0350379861969,0,0.0,97.99999999874365
196.0,11.047289034279288,50.971988026394264,845.0350379861969,0,0.0,97.99999999992764
197.0,11.04819124142034,50.97190817871277,845.0350379861969,0,0.0,98.00000000005741
198.0,11.049093447010307,50.971828331031304,845.0350379861969,0,0.0,97.99999999896318
199.0,11.049995651049159,50.97174848334983,845.0350379861969,0,0.0,98.00000000006878
200.0,11.050897853536924,50.97166863566837,845.0350379861969,0,0.0,98.00000000007003
201.0,11.051800054473603,50.971588787986924,845.0350379861969,0,0.0,97.99999999980486
202.0,11.052702253859223,50.97150894030548,845.0350379861969,0,0.0,98.00000000028086
203.0,11.053604451693786,50.971429092624064,845.0350379861969,0,0.0,97.99999999864491
204.0,11.054506647977263,50.971349244942644,845.0350379861969,0,0.0,97.999999999181
205.0,11.05540884270971,50.97126939726123,845.0350379861969,0,0.0,98.00000000024943
206.0,11.056311035891099,50.971189549579826,845.0350379861969,0,0.0,98.00000000004377
207.0,11.05721322752143,50.97110970189844,845.0350379861969,0,0.0,97.99999999957174
208.0,11.05811541760076,50.971029854217065,845.0350379861969,0,0.0,97.99999999963205
209.0,11.05901760612906,50.970950006535695,845.0350379861969,0,0.0,97.99999999936193
210.0,11.059919793106332,50.97087015885434,845.0350379861969,0,0.0,97.99999999915377
211.0,11.060821978532601,50.97079031117299,845.0350379861969,0,0.0,97.99999999940019
212.0,11.06172416240787,50.970710463491656,845.0350379861969,0,0.0,97.99999999938007
213.0,11.062626344732138,50.970630615810315,845.0350379861969,0,0.0,98.00000000068025
214.0,11.063528525505433,50.970550768129,845.0350379861969,0,0.0,97.9999999989609
215.0,11.064430704727727,50.97047092044769,845.0350379861969,0,0.0,98.00000000102807
216.0,11.065332882399048,50.97039107276639,845.0350379861969,0,0.0,97.99999999943276
217.0,11.066235058519396,50.9703112250851,845.0350379861969,0,0.0,97.99999999948608
218.0,11.067137233088772,50.97023137740381,845.0350379861969,0,0.0,98.0000000005312
219.0,11.068039406107232,50.97015152972254,845.0350379861969,0,0.0,97.9999999992499
220.0,11.06894157757472,50.97007168204128,845.0350379861969,0,0.0,98.00000000011846
221.0,11.06984374749129,50.96999183436003,845.0350379861969,0,0.0,97.9999999996042
222.0,11.070745915856918,50.96991198667879,845.0350379861969,0,0.0,97.99999999970316
223.0,11.07164808267163,50.96983213899755,845.0350379861969,3.0,0.0,97.9999999996275
224.0,11.072548448392922,50.969744606530796,845.0350379861969,6.0,0.0,98.77578427511196
225.0,11.073446847816854,50.9696494053263,845.0350379861969,8.73795534601088,0.0,99.55156855059727
226.0,11.074343116101971,50.96954655283778,845.0350379861969,8.73795534601088,0.0,100.32735282525357
227.0,11.07523708879961,50.9694360679216,845.0350379861969,8.73795534601088,0.0,101.1031371012923
228.0,11.076128601884278,50.96931797083337,845.0350379861969,8.73795534601088,0.0,101.87892137738385
229.0,11.077017491783863,50.96919228322425,845.0350379861969,8.73795534601088,0.0,102.65470565184796
230.0,11.077903595409794,50.969059028136904,845.0350379861969,8.73795534601088,0.0,103.4304899277563
231.0,11.078786750187021,50.968918230001336,845.0350379861969,8.73795534601088,0.0,104.20627420223127
232.0,11.079666794084005,50.96876991463038,845.0350379861969,8.73795534601088,0.0,104.98205847851546
233.0,11.080543565642614,50.96861410921501,845.0350379861969,8.73795534601088,0.0,105.75784275507829
234.0,11.081416904007824,50.96845084231932,845.0350379861969,8.73795534601088,0.0,106.5336270292313
235.0,11.082286648957393,50.968280143875276,845.0350379861969,8.73795534601088,0.0,107.30941130435741
